"Time (s)","Gravity X (m/s^2)","Gravity Y (m/s^2)","Gravity Z (m/s^2)"
1.494645834E-2,-4.851006226E0,2.952859984E0,7.999028435E0
3.483345837E-2,-4.873668864E0,2.895396473E0,8.006255593E0
5.472145835E-2,-4.901815314E0,2.820468205E0,8.015813452E0
7.460945833E-2,-4.945383210E0,2.724224789E0,8.022336606E0
9.449645836E-2,-5.036509727E0,2.636245536E0,7.994990932E0
1.143844583E-1,-5.212577577E0,2.542126999E0,7.912188511E0
1.342724583E-1,-5.486276971E0,2.426814351E0,7.761922086E0
1.541594584E-1,-5.875484601E0,2.282627422E0,7.516940122E0
1.740474583E-1,-6.367810804E0,2.107099124E0,7.158716887E0
1.939344584E-1,-6.900335444E0,1.895906466E0,6.710217320E0
2.138224583E-1,-7.392652291E0,1.675821508E0,6.227070662E0
2.337104583E-1,-7.842760427E0,1.438091407E0,5.714814225E0
2.535974584E-1,-8.236448194E0,1.143774512E0,5.204690852E0
2.734854583E-1,-8.583958746E0,7.713997722E-1,4.685797533E0
2.933734583E-1,-8.907844207E0,3.256836261E-1,4.096380654E0
3.132604584E-1,-9.198784116E0,-1.554820872E-1,3.405041835E0
3.331484583E-1,-9.422562321E0,-7.080633900E-1,2.636297576E0
3.530364584E-1,-9.532225682E0,-1.357534171E0,1.878796636E0
3.729234583E-1,-9.524603836E0,-2.033281535E0,1.176341383E0
3.928114583E-1,-9.421986955E0,-2.682576826E0,5.158199129E-1
4.126994584E-1,-9.234466749E0,-3.310620705E0,-2.217355767E-2
4.325865834E-1,-8.973775072E0,-3.946434363E0,-3.648161899E-1
4.524745833E-1,-8.663698980E0,-4.571313728E0,-5.286852491E-1
4.723625833E-1,-8.340678906E0,-5.137159020E0,-5.279779553E-1
4.922495834E-1,-8.019182618E0,-5.634216789E0,-4.294067998E-1
5.121375833E-1,-7.699637545E0,-6.065758261E0,-3.978243801E-1
5.320255833E-1,-7.389771368E0,-6.427248920E0,-5.637913472E-1
5.519125834E-1,-7.211347091E0,-6.601690074E0,-8.063823478E-1
5.718005833E-1,-7.112915647E0,-6.663539582E0,-1.113464519E0
5.916885834E-1,-7.024487620E0,-6.704234449E0,-1.394971115E0
6.115765834E-1,-6.946063010E0,-6.723508042E0,-1.668166918E0
6.314635833E-1,-6.881737790E0,-6.726625777E0,-1.905335686E0
6.513515834E-1,-6.909827814E0,-6.627959275E0,-2.135540127E0
6.712395833E-1,-7.043513875E0,-6.416275451E0,-2.335899211E0
6.911265833E-1,-7.224208041E0,-6.159010241E0,-2.472551272E0
7.110145834E-1,-7.383713652E0,-5.917500354E0,-2.588449518E0
7.309025833E-1,-7.509349267E0,-5.704260585E0,-2.703184753E0
7.507895834E-1,-7.618352476E0,-5.487843440E0,-2.842601085E0
7.706775834E-1,-7.730108555E0,-5.228517671E0,-3.023924704E0
7.905655833E-1,-7.849226278E0,-4.935362252E0,-3.204367441E0
8.104525834E-1,-7.966272333E0,-4.604086203E0,-3.402500928E0
8.303405833E-1,-7.990558158E0,-4.351835858E0,-3.667235371E0
8.502285833E-1,-7.995732944E0,-4.119449966E0,-3.915929147E0
8.701165834E-1,-8.070960882E0,-3.863126450E0,-4.021437183E0
8.900035833E-1,-8.226292166E0,-3.586097944E0,-3.962837850E0
9.098915834E-1,-8.435064662E0,-3.336486155E0,-3.735460390E0
9.297795834E-1,-8.637929131E0,-3.218955367E0,-3.355679641E0
9.496665833E-1,-8.868008881E0,-2.949931699E0,-2.982015956E0
9.695545834E-1,-9.055043768E0,-2.647625387E0,-2.689304048E0
9.894425833E-1,-9.135312590E0,-2.529811885E0,-2.526304725E0
1.009330583E0,-9.129313931E0,-2.532274148E0,-2.545452310E0
1.029217583E0,-9.075449381E0,-2.616655609E0,-2.650557181E0
1.049105583E0,-8.989108225E0,-2.727755338E0,-2.826908036E0
1.068993583E0,-8.864525110E0,-2.806232281E0,-3.127517193E0
1.088880583E0,-8.654046981E0,-2.863307245E0,-3.625613720E0
1.108768583E0,-8.416499167E0,-2.847410420E0,-4.158236594E0
1.128656583E0,-8.309512662E0,-2.687371251E0,-4.468343384E0
1.148544583E0,-8.276755975E0,-2.509045791E0,-4.629915401E0
1.168431583E0,-8.260104859E0,-2.407041991E0,-4.713055206E0
1.188319583E0,-8.280027493E0,-2.348406113E0,-4.707679276E0
1.208207583E0,-8.319989119E0,-2.325563526E0,-4.648183857E0
1.228095583E0,-8.335691816E0,-2.405253182E0,-4.578985860E0
1.247982583E0,-8.286420254E0,-2.541399897E0,-4.594844678E0
1.267870583E0,-8.235281675E0,-2.589842910E0,-4.659286550E0
1.287758583E0,-8.261860778E0,-2.573770376E0,-4.620977639E0
1.307646583E0,-8.319571043E0,-2.543471273E0,-4.533390149E0
1.327533583E0,-8.356573977E0,-2.565232856E0,-4.452342478E0
1.347421583E0,-8.342780980E0,-2.672487456E0,-4.414964737E0
1.367309583E0,-8.296822450E0,-2.816531274E0,-4.412029434E0
1.387197583E0,-8.253775249E0,-2.959898278E0,-4.398896296E0
1.407084583E0,-8.222262849E0,-3.085572191E0,-4.371469931E0
1.426972542E0,-8.228472008E0,-3.185645826E0,-4.287196058E0
1.446860542E0,-8.246986631E0,-3.249246867E0,-4.203058425E0
1.466748542E0,-8.229270152E0,-3.327972902E0,-4.176103346E0
1.486635542E0,-8.151399273E0,-3.477729450E0,-4.206683699E0
1.506523542E0,-8.036254148E0,-3.681394988E0,-4.254649579E0
1.526411542E0,-7.975270028E0,-3.805178789E0,-4.260497087E0
1.546299542E0,-7.934903190E0,-3.891164142E0,-4.258204393E0
1.566186542E0,-7.844825664E0,-4.050410429E0,-4.276562312E0
1.586074542E0,-7.816493565E0,-4.117607216E0,-4.264251291E0
1.605962542E0,-7.828452875E0,-4.108490530E0,-4.251084824E0
1.625850542E0,-7.810695466E0,-4.141391058E0,-4.251826251E0
1.645737542E0,-7.793486525E0,-4.130004190E0,-4.294265926E0
1.665625542E0,-7.747968290E0,-4.091056179E0,-4.412296360E0
1.685513542E0,-7.639431689E0,-4.136045826E0,-4.557225739E0
1.705401542E0,-7.508067557E0,-4.322625215E0,-4.602167731E0
1.725288542E0,-7.376478308E0,-4.567025965E0,-4.578857806E0
1.745176542E0,-7.260556088E0,-4.760273519E0,-4.567297568E0
1.765064542E0,-7.124215391E0,-4.886938536E0,-4.647525460E0
1.784952542E0,-6.951683938E0,-4.973558604E0,-4.813927570E0
1.804840542E0,-6.846643386E0,-5.098424140E0,-4.833806056E0
1.824727542E0,-6.770308571E0,-5.309828467E0,-4.712193911E0
1.844615542E0,-6.613796149E0,-5.599914683E0,-4.597252854E0
1.864503542E0,-6.283460625E0,-5.927543532E0,-4.649565554E0
1.884391542E0,-5.757166777E0,-6.400614853E0,-4.703537985E0
1.904278542E0,-5.568975896E0,-6.644953038E0,-4.589901442E0
1.924166542E0,-5.534619411E0,-6.502734720E0,-4.828927140E0
1.944054542E0,-5.482202631E0,-6.363274534E0,-5.068555393E0
1.963942542E0,-5.435788018E0,-6.284617789E0,-5.214584926E0
1.983829542E0,-5.481756488E0,-6.250386434E0,-5.207603935E0
2.003717542E0,-5.579690918E0,-6.266569188E0,-5.082642505E0
2.023605542E0,-5.655510010E0,-6.299446912E0,-4.956640854E0
2.043493542E0,-5.735434431E0,-6.309778358E0,-4.850521199E0
2.063381542E0,-5.844038860E0,-6.313086712E0,-4.714687164E0
2.083268542E0,-5.950878015E0,-6.373974938E0,-4.493950972E0
2.103156542E0,-6.023640182E0,-6.461818244E0,-4.265768644E0
2.123044542E0,-6.051737807E0,-6.461882563E0,-4.225711416E0
2.142932542E0,-6.058196642E0,-6.431813841E0,-4.262168806E0
2.162819542E0,-6.095246939E0,-6.421723886E0,-4.224393746E0
2.182707542E0,-6.129370120E0,-6.414440594E0,-4.185910589E0
2.202595542E0,-6.176850096E0,-6.390103313E0,-4.153221145E0
2.222483542E0,-6.231839651E0,-6.328165512E0,-4.165886799E0
2.242371542E0,-6.249170213E0,-6.235507025E0,-4.278133166E0
2.262258542E0,-6.353987986E0,-6.118412438E0,-4.292779857E0
2.282146542E0,-6.454738435E0,-6.018696361E0,-4.283428405E0
2.302034542E0,-6.530890818E0,-5.965527045E0,-4.242175713E0
2.321922542E0,-6.592554384E0,-5.936956964E0,-4.186512267E0
2.341810542E0,-6.612150158E0,-5.933554469E0,-4.160347731E0
2.361697542E0,-6.613749372E0,-5.962153201E0,-4.116690373E0
2.381585542E0,-6.635552469E0,-5.995278262E0,-4.032642787E0
2.401473542E0,-6.687417272E0,-5.978557565E0,-3.971321575E0
2.421362083E0,-6.801665434E0,-5.869522780E0,-3.939816192E0
2.441249083E0,-6.947728297E0,-5.737379799E0,-3.879123555E0
2.461137083E0,-7.111117628E0,-5.592318565E0,-3.793950966E0
2.481025083E0,-7.258321282E0,-5.457211631E0,-3.711023999E0
2.500913083E0,-7.384606522E0,-5.357479767E0,-3.605700442E0
2.520801083E0,-7.496162626E0,-5.297610710E0,-3.461064593E0
2.540688083E0,-7.587784402E0,-5.262270139E0,-3.312120223E0
2.560576083E0,-7.671195518E0,-5.247404178E0,-3.139048779E0
2.580464083E0,-7.718880731E0,-5.243361998E0,-3.026899475E0
2.600352083E0,-7.749092710E0,-5.234041536E0,-2.965215443E0
2.620240083E0,-7.792732235E0,-5.230413923E0,-2.855209729E0
2.640128083E0,-7.830660784E0,-5.240107437E0,-2.730952011E0
2.660015083E0,-7.855164126E0,-5.251853909E0,-2.636381191E0
2.679903083E0,-7.881135703E0,-5.259703211E0,-2.541521812E0
2.699791083E0,-7.910893353E0,-5.269129508E0,-2.426965648E0
2.719679083E0,-7.943550637E0,-5.272998025E0,-2.309034909E0
2.739567083E0,-7.975448953E0,-5.265099022E0,-2.215185929E0
2.759454083E0,-8.002841404E0,-5.251923491E0,-2.146609637E0
2.779342083E0,-8.029004186E0,-5.234262561E0,-2.091336931E0
2.799230083E0,-8.055902547E0,-5.206477761E0,-2.056965682E0
2.819118083E0,-8.088729401E0,-5.161892157E0,-2.040452268E0
2.839006083E0,-8.126315888E0,-5.103712946E0,-2.037455862E0
2.858894083E0,-8.166751138E0,-5.037050595E0,-2.041665711E0
2.878781083E0,-8.212540684E0,-4.961954804E0,-2.041881035E0
2.898669083E0,-8.263495660E0,-4.882331222E0,-2.028203667E0
2.918557083E0,-8.317402310E0,-4.802701793E0,-1.997745520E0
2.938445083E0,-8.382487083E0,-4.713297865E0,-1.937733646E0
2.958333083E0,-8.466264235E0,-4.594141551E0,-1.858051007E0
2.978220083E0,-8.559719113E0,-4.458024802E0,-1.758788382E0
2.998108083E0,-8.659293103E0,-4.321440861E0,-1.605579052E0
3.017996083E0,-8.749356596E0,-4.198769493E0,-1.433590805E0
3.037884083E0,-8.837426773E0,-4.070823351E0,-1.250754658E0
3.057772083E0,-8.916921424E0,-3.940575745E0,-1.093831396E0
3.077660083E0,-8.978291461E0,-3.838117617E0,-9.461647888E-1
3.097547083E0,-9.022240303E0,-3.761885127E0,-8.267684459E-1
3.117435083E0,-9.051590402E0,-3.716852796E0,-6.998729027E-1
3.137323083E0,-9.067522311E0,-3.688797855E0,-6.394606400E-1
3.157211083E0,-9.071797210E0,-3.689558286E0,-5.707747499E-1
3.177099083E0,-9.065327851E0,-3.709498461E0,-5.436430480E-1
3.196987083E0,-9.044583099E0,-3.756079427E0,-5.687471914E-1
3.216875083E0,-9.008764225E0,-3.831787129E0,-6.290272339E-1
3.236762083E0,-8.963419653E0,-3.921182870E0,-7.193976329E-1
3.256650083E0,-8.931901991E0,-3.974610341E0,-8.122078557E-1
3.276538083E0,-8.937245176E0,-3.952701994E0,-8.590131359E-1
3.296426083E0,-8.957626816E0,-3.907479920E0,-8.536067272E-1
3.316314083E0,-8.968467554E0,-3.881857129E0,-8.566732264E-1
3.336202083E0,-8.974477907E0,-3.863142530E0,-8.780714775E-1
3.356089083E0,-8.966704618E0,-3.870151003E0,-9.253373721E-1
3.375977083E0,-8.948861840E0,-3.895325021E0,-9.901597510E-1
3.395865083E0,-8.935795067E0,-3.911356624E0,-1.043528677E0
3.415753083E0,-8.932830529E0,-3.913219839E0,-1.061779737E0
3.435640833E0,-8.932911805E0,-3.912214703E0,-1.064786522E0
3.455528833E0,-8.930007493E0,-3.918545776E0,-1.065881998E0
3.475416833E0,-8.922783843E0,-3.935536907E0,-1.063751784E0
3.495303833E0,-8.914564996E0,-3.958782221E0,-1.046270217E0
3.515191833E0,-8.908990846E0,-3.978395536E0,-1.018990471E0
3.535079833E0,-8.905678398E0,-3.987998126E0,-1.010373137E0
3.554967833E0,-8.904135318E0,-3.982823925E0,-1.043833463E0
3.574855833E0,-8.905094846E0,-3.962325926E0,-1.111457828E0
3.594743833E0,-8.911658345E0,-3.922911015E0,-1.195490649E0
3.614631833E0,-8.927086224E0,-3.866491231E0,-1.262330244E0
3.634518833E0,-8.949631918E0,-3.804847837E0,-1.289706031E0
3.654406833E0,-8.971271294E0,-3.746324225E0,-1.310516271E0
3.674294833E0,-8.985940788E0,-3.704244445E0,-1.329488147E0
3.694182833E0,-8.994953102E0,-3.687279041E0,-1.315632000E0
3.714070833E0,-8.997196679E0,-3.688232430E0,-1.297497299E0
3.733958833E0,-8.990439636E0,-3.710906470E0,-1.279566813E0
3.753846833E0,-8.978694334E0,-3.751223314E0,-1.243981828E0
3.773734833E0,-8.965955005E0,-3.800160416E0,-1.185987900E0
3.793622833E0,-8.952447352E0,-3.855880288E0,-1.105440750E0
3.813509833E0,-8.939204578E0,-3.911952163E0,-1.011599371E0
3.833397833E0,-8.929484752E0,-3.958836600E0,-9.099515936E-1
3.853285833E0,-8.925732594E0,-3.989036592E0,-8.093123145E-1
3.873173833E0,-8.926706155E0,-4.004240229E0,-7.183984168E-1
3.893061833E0,-8.928365010E0,-4.010667489E0,-6.595135930E-1
3.912949833E0,-8.931870416E0,-4.003375134E0,-6.563208671E-1
3.932837833E0,-8.938887075E0,-3.978884656E0,-7.077413546E-1
3.952725833E0,-8.946510090E0,-3.944379067E0,-7.987276116E-1
3.972612833E0,-8.957321591E0,-3.894613707E0,-9.135167871E-1
3.992500833E0,-8.972358291E0,-3.829523672E0,-1.033266740E0
4.012388833E0,-8.987061115E0,-3.762938503E0,-1.144171903E0
4.032276833E0,-8.996798483E0,-3.710491610E0,-1.235300467E0
4.052164833E0,-9.003133357E0,-3.679318349E0,-1.281530161E0
4.072052833E0,-9.008953675E0,-3.663829660E0,-1.284992736E0
4.091940833E0,-9.008954844E0,-3.665138267E0,-1.281246425E0
4.111828833E0,-9.003047987E0,-3.685804958E0,-1.263358331E0
4.131716833E0,-8.992735253E0,-3.723883196E0,-1.224535743E0
4.151603833E0,-8.977969279E0,-3.776501705E0,-1.170550959E0
4.171491833E0,-8.960853310E0,-3.838962247E0,-1.096168309E0
4.191379833E0,-8.944146060E0,-3.900006009E0,-1.014049208E0
4.211267833E0,-8.933434546E0,-3.945566344E0,-9.286299393E-1
4.231155833E0,-8.931238917E0,-3.967553044E0,-8.529793210E-1
4.251043833E0,-8.929125733E0,-3.977328712E0,-8.292780709E-1
4.270931833E0,-8.930951818E0,-3.967754773E0,-8.550616606E-1
4.290819833E0,-8.936379789E0,-3.939443140E0,-9.262814051E-1
4.310707833E0,-8.946814730E0,-3.891352422E0,-1.023708736E0
4.330595833E0,-8.961723960E0,-3.830302228E0,-1.119091002E0
4.350483833E0,-8.976742533E0,-3.767732928E0,-1.207633562E0
4.370370833E0,-8.986517909E0,-3.717878690E0,-1.286843526E0
4.390258833E0,-8.992582056E0,-3.683650844E0,-1.341757506E0
4.410146833E0,-8.999199350E0,-3.661353656E0,-1.358302787E0
4.430034958E0,-8.999655433E0,-3.663237922E0,-1.350180566E0
4.449922958E0,-8.992446985E0,-3.692955518E0,-1.316829364E0
4.469810958E0,-8.981075320E0,-3.747404206E0,-1.238278453E0
4.489698958E0,-8.967617953E0,-3.813894356E0,-1.127883899E0
4.509586958E0,-8.954790332E0,-3.876176266E0,-1.011497483E0
4.529474958E0,-8.945832982E0,-3.924503796E0,-8.980134796E-1
4.549362958E0,-8.938163189E0,-3.958919046E0,-8.199297617E-1
4.569250958E0,-8.934498739E0,-3.969869711E0,-8.068292943E-1
4.589138958E0,-8.935023819E0,-3.958499800E0,-8.554051846E-1
4.609025958E0,-8.940072890E0,-3.924221960E0,-9.548257577E-1
4.628913958E0,-8.952268428E0,-3.864844362E0,-1.075168107E0
4.648801958E0,-8.968930653E0,-3.786704804E0,-1.206339134E0
4.668689958E0,-8.987312545E0,-3.702773870E0,-1.324308830E0
4.688577958E0,-9.000892704E0,-3.638192543E0,-1.408397346E0
4.708465958E0,-9.001620682E0,-3.618235703E0,-1.454416249E0
4.728353958E0,-9.003590609E0,-3.621249358E0,-1.434577523E0
4.748241958E0,-9.004024472E0,-3.629050421E0,-1.411956107E0
4.768129958E0,-9.000332540E0,-3.639772168E0,-1.407890392E0
4.788017958E0,-8.990318599E0,-3.679977623E0,-1.366759323E0
4.807905958E0,-8.979600652E0,-3.737415699E0,-1.278503935E0
4.827793958E0,-8.965835722E0,-3.801783896E0,-1.181655698E0
4.847681958E0,-8.951528170E0,-3.864292093E0,-1.083265697E0
4.867569958E0,-8.943200566E0,-3.910010303E0,-9.834141838E-1
4.887456958E0,-8.940789759E0,-3.935121755E0,-9.017799635E-1
4.907344958E0,-8.941258705E0,-3.942775468E0,-8.628557067E-1
4.927232958E0,-8.946059854E0,-3.928112405E0,-8.797920207E-1
4.947120958E0,-8.956578995E0,-3.889508795E0,-9.420825552E-1
4.967008958E0,-8.972093997E0,-3.834085377E0,-1.018532780E0
4.986896958E0,-8.991171708E0,-3.769706363E0,-1.088228887E0
5.006784958E0,-9.011768525E0,-3.705620587E0,-1.136878159E0
5.026672958E0,-9.027371820E0,-3.658764802E0,-1.164523210E0
5.046560958E0,-9.036034470E0,-3.634367294E0,-1.173695664E0
5.066448958E0,-9.039991865E0,-3.619690491E0,-1.188497818E0
5.086336958E0,-9.041763572E0,-3.615173517E0,-1.188747713E0
5.106224958E0,-9.038667471E0,-3.627651767E0,-1.174195163E0
5.126112958E0,-9.030854421E0,-3.660122233E0,-1.132826185E0
5.146000958E0,-9.018828453E0,-3.708864915E0,-1.068268539E0
5.165888958E0,-9.005158247E0,-3.767478866E0,-9.743432520E-1
5.185776958E0,-8.992330626E0,-3.823193768E0,-8.702180821E-1
5.205664958E0,-8.982598520E0,-3.858197540E0,-8.144599839E-1
5.225552958E0,-8.979663802E0,-3.874788722E0,-7.666518331E-1
5.245440958E0,-8.985692866E0,-3.862966529E0,-7.555783030E-1
5.265327958E0,-9.000980996E0,-3.817321410E0,-8.040504051E-1
5.285215958E0,-9.020993677E0,-3.747667623E0,-9.015246595E-1
5.305103958E0,-9.045174252E0,-3.664117635E0,-9.975789175E-1
5.324991958E0,-9.064817973E0,-3.589278537E0,-1.087309923E0
5.344879958E0,-9.075607840E0,-3.553069362E0,-1.115849379E0
5.364767958E0,-9.088535450E0,-3.560243896E0,-9.794309143E-1
5.384655958E0,-9.102110345E0,-3.555122904E0,-8.653360956E-1
5.404543958E0,-9.112984997E0,-3.537680075E0,-8.212385879E-1
5.424434167E0,-9.106739001E0,-3.544487696E0,-8.602441940E-1
5.444322167E0,-9.081076741E0,-3.591698115E0,-9.326419332E-1
5.464210167E0,-9.045211675E0,-3.671872213E0,-9.683184271E-1
5.484098167E0,-9.014747096E0,-3.768885414E0,-8.751883616E-1
5.503986167E0,-8.988241083E0,-3.869894018E0,-6.866992720E-1
5.523874167E0,-8.967443122E0,-3.936312833E0,-5.714286879E-1
5.543762167E0,-8.953425007E0,-3.975909593E0,-5.142382045E-1
5.563650167E0,-8.950953389E0,-3.988642489E0,-4.552656360E-1
5.583538167E0,-8.962509241E0,-3.964140902E0,-4.417014478E-1
5.603426167E0,-8.981408027E0,-3.914800926E0,-4.947046670E-1
5.623314167E0,-9.001436495E0,-3.853766228E0,-5.989368409E-1
5.643202167E0,-9.024157605E0,-3.781740810E0,-7.064714125E-1
5.663090167E0,-9.046040225E0,-3.719876391E0,-7.535216910E-1
5.682978167E0,-9.063405871E0,-3.673583400E0,-7.717196880E-1
5.702866167E0,-9.078812699E0,-3.633353972E0,-7.810064551E-1
5.722754167E0,-9.094289694E0,-3.596788993E0,-7.701269795E-1
5.742642167E0,-9.101284719E0,-3.582647502E0,-7.532275761E-1
5.762530167E0,-9.090638693E0,-3.603882836E0,-7.800051925E-1
5.782418167E0,-9.066911277E0,-3.656388786E0,-8.112125134E-1
5.802306167E0,-9.039122384E0,-3.724644796E0,-8.107966302E-1
5.822194167E0,-9.013461878E0,-3.810175820E0,-6.900385438E-1
5.842082167E0,-8.989399416E0,-3.887140088E0,-5.629507368E-1
5.861970167E0,-8.970512325E0,-3.941625613E0,-4.791458474E-1
5.881858167E0,-8.957954845E0,-3.977177561E0,-4.161730525E-1
5.901745167E0,-8.954709640E0,-3.987873873E0,-3.822893879E-1
5.921633167E0,-8.961469021E0,-3.971123062E0,-3.979314938E-1
5.941521167E0,-8.973537090E0,-3.936898431E0,-4.610356684E-1
5.961409167E0,-8.987250565E0,-3.894512842E0,-5.461035929E-1
5.981297167E0,-9.001276866E0,-3.849415899E0,-6.285762674E-1
6.001185167E0,-9.013763595E0,-3.811664521E0,-6.777632647E-1
6.021073167E0,-9.024430085E0,-3.774957455E0,-7.385444867E-1
6.040961167E0,-9.033417256E0,-3.745898547E0,-7.757100472E-1
6.060849167E0,-9.040958995E0,-3.726695707E0,-7.803415536E-1
6.080737167E0,-9.041903905E0,-3.726902698E0,-7.682997977E-1
6.100625167E0,-9.034546353E0,-3.752241022E0,-7.306079147E-1
6.120513167E0,-9.020797210E0,-3.799370165E0,-6.527672949E-1
6.140401167E0,-9.003480096E0,-3.855012269E0,-5.588721577E-1
6.160289167E0,-8.985578846E0,-3.906333281E0,-4.858409459E-1
6.180177167E0,-8.970128163E0,-3.950757794E0,-4.054388801E-1
6.200065167E0,-8.959796718E0,-3.980078950E0,-3.422440006E-1
6.219953167E0,-8.954732444E0,-3.993782484E0,-3.139943842E-1
6.239841167E0,-8.955370960E0,-3.992642570E0,-3.102223088E-1
6.259729167E0,-8.964124827E0,-3.969335568E0,-3.534655749E-1
6.279617167E0,-8.979495403E0,-3.926362041E0,-4.340935990E-1
6.299505167E0,-9.002572609E0,-3.861724288E0,-5.261691557E-1
6.319393167E0,-9.030662048E0,-3.783013456E0,-6.099425798E-1
6.339281167E0,-9.062058088E0,-3.695163134E0,-6.789454255E-1
6.359169167E0,-9.091149740E0,-3.616302029E0,-7.137708572E-1
6.379057167E0,-9.111338421E0,-3.570119258E0,-6.883848781E-1
6.398945167E0,-9.123741535E0,-3.538187029E0,-6.889503039E-1
6.418833167E0,-9.127808858E0,-3.521702266E0,-7.189204270E-1
6.438718792E0,-9.124988161E0,-3.527489840E0,-7.263013673E-1
6.458606792E0,-9.117598450E0,-3.547592860E0,-7.211764289E-1
6.478494792E0,-9.107258819E0,-3.574909297E0,-7.169030645E-1
6.498382792E0,-9.094466865E0,-3.611606423E0,-6.950352088E-1
6.518270792E0,-9.085386724E0,-3.643974562E0,-6.428962447E-1
6.538158792E0,-9.085351641E0,-3.653667784E0,-5.858294299E-1
6.558046792E0,-9.090925791E0,-3.644214590E0,-5.575611755E-1
6.577934792E0,-9.098373975E0,-3.623051470E0,-5.737569395E-1
6.597822792E0,-9.105936763E0,-3.592280498E0,-6.430622325E-1
6.617710792E0,-9.120877569E0,-3.540373303E0,-7.151643949E-1
6.637598792E0,-9.137680712E0,-3.487023307E0,-7.612856240E-1
6.657486792E0,-9.145659823E0,-3.464057783E0,-7.702850736E-1
